X	Y				
0	152				
1	90		1	9	
2	130		10	8	
3	205		18	8	
4	224		26	8	
5	215		34	9	
6	216		43	8	
7	222		51	8	
8	189		59	8	
9	114		67	9	
10	101		76	8	
11	174		84	8	
12	223		92	9	
13	218		101		
14	218				mm/pixel
15	224				0.12
16	189				
17	111				
18	96				
19	170				
20	220				
21	217				
22	216				
23	224				
24	212				
25	141				
26	87				
27	138				
28	211				
29	224				
30	215				
31	218				
32	223				
33	181				
34	103				
35	106				
36	182				
37	220				
38	212				
39	212				
40	226				
41	188				
42	105				
43	103				
44	181				
45	221				
46	217				
47	217				
48	226				
49	212				
50	137				
51	85				
52	144				
53	211				
54	218				
55	211				
56	220				
57	213				
58	142				
59	85				
60	141				
61	215				
62	224				
63	213				
64	217				
65	222				
66	176				
67	94				
68	106				
69	194				
70	229				
71	217				
72	217				
73	230				
74	206				
75	119				
76	84				
77	159				
78	221				
79	219				
80	214				
81	231				
82	217				
83	131				
84	82				
85	151				
86	217				
87	222				
88	217				
89	224				
90	225				
91	162				
92	81				
93	110				
94	195				
95	218				
96	208				
97	211				
98	224				
99	198				
100	110				
101	82				
102	161				
103	224				
104	224				
105	215				
106	222				
107	208				
108	122				
109	77				
110	155				
111	225				
112	225				
113	215				
114	224				
115	233				
116	178				
117	86				
118	101				
119	195				
120	231				
121	222				
122	223				
123	237				
124	200				
125	104				
126	92				
127	182				
128	231				
129	223				
130	217				
131	225				
132	224				
133	156				
134	82				
135	129				
136	216				
137	231				
138	218				
139	219				
140	229				
141	196				
142	103				
143	86				
144	176				
145	229				
146	221				
147	218				
148	229				
149	210				
150	121				
151	77				
152	155				
153	224				
154	223				
155	213				
156	222				
157	231				
158	185				
159	95				
160	101				
161	192				
162	230				
163	218				
164	213				
165	224				
166	214				
167	132				
168	78				
