X	Y							
0	48							
1	49							
2	44							
3	45							
4	42							
5	47							
6	53							
7	57							
8	54							
9	47							
10	44							
11	46							
12	36							
13	27							
14	33							
15	28							
16	25							
17	25							
18	26							
19	22					-	+	åv
20	17				x0	85	203	59
21	14				2x0	24	262	119
22	10							
23	8					åãâ 		
24	7					x0/pixel	59.25	
25	6					x0/mm	7.11	
26	4							
27	4					ïù2a/mm	0.04494571	
28	3							
29	3							
30	4							
31	5							
32	7							
33	11							
34	14							
35	15							
36	18							
37	23							
38	30							
39	38							
40	40							
41	46							
42	59							
43	62							
44	62							
45	73							
46	93							
47	84							
48	80							
49	94							
50	97							
51	104							
52	122							
53	120							
54	106							
55	134							
56	169							
57	149							
58	121							
59	122							
60	142							
61	160							
62	133							
63	120							
64	143							
65	160							
66	141							
67	137							
68	152							
69	140							
70	155							
71	161							
72	115							
73	103							
74	117							
75	100							
76	91							
77	80							
78	65							
79	65							
80	50							
81	46							
82	42							
83	29							
84	22							
85	14							
86	11							
87	10							
88	11							
89	16							
90	20							
91	26							
92	37							
93	51							
94	87							
95	97							
96	105							
97	142							
98	180							
99	195							
100	225							
101	253							
102	254							
103	253							
104	254							
105	255							
106	254							
107	254							
108	255							
109	254							
110	254							
111	255							
112	254							
113	254							
114	254							
115	254							
116	254							
117	254							
118	254							
119	254							
120	254							
121	254							
122	254							
123	254							
124	254							
125	253							
126	254							
127	254							
128	254							
129	253							
130	254							
131	254							
132	253							
133	253							
134	253							
135	253							
136	254							
137	254							
138	253							
139	253							
140	253							
141	254							
142	254							
143	253							
144	253							
145	253							
146	253							
147	253							
148	253							
149	253							
150	253							
151	253							
152	253							
153	253							
154	253							
155	252							
156	253							
157	253							
158	253							
159	254							
160	254							
161	253							
162	254							
163	253							
164	252							
165	253							
166	253							
167	253							
168	253							
169	253							
170	253							
171	252							
172	253							
173	253							
174	253							
175	253							
176	253							
177	253							
178	253							
179	253							
180	253							
181	253							
182	253							
183	253							
184	253							
185	253							
186	253							
187	253							
188	254							
189	253							
190	252							
191	254							
192	253							
193	252							
194	208							
195	142							
196	124							
197	126							
198	108							
199	72							
200	41							
201	32							
202	26							
203	20							
204	14							
205	11							
206	11							
207	13							
208	15							
209	20							
210	30							
211	43							
212	59							
213	77							
214	85							
215	85							
216	90							
217	111							
218	129							
219	140							
220	143							
221	139							
222	179							
223	176							
224	154							
225	135							
226	130							
227	154							
228	187							
229	180							
230	166							
231	162							
232	187							
233	201							
234	205							
235	183							
236	163							
237	163							
238	164							
239	164							
240	149							
241	137							
242	167							
243	134							
244	116							
245	126							
246	125							
247	103							
248	83							
249	77							
250	73							
251	63							
252	69							
253	63							
254	50							
255	39							
256	35							
257	29							
258	24							
259	21							
260	18							
261	12							
262	9							
263	5							
264	4							
265	4							
266	4							
267	4							
268	5							
269	6							
270	7							
271	11							
272	14							
273	15							
274	16							
275	20							
276	25							
277	29							
278	27							
279	25							
280	30							
281	45							
282	37							
283	41							
284	45							
285	56							
286	65							
287	62							
288	63							
289	66							
290	66							
291	69							
292	62							
293	65							
294	60							
295	59							
296	60							
297	55							
298	51							
299	54							
300	52							
301	58							
302	50							
303	43							
304	40							
305	36							
306	34							
307	31							
308	27							
309	26							
310	26							
311	22							
312	20							
313	19							
314	18							
315	15							
