X	Y					
0	1					
1	1					
2	1					
3	1					
4	1					
5	1					
6	1					
7	1					
8	1					
9	1					
10	1					
11	1					
12	1					
13	1					
14	1					
15	1					
16	1					
17	1					
18	1					
19	1					
20	1					
21	1					Io
22	1					199
23	1					
24	1					
25	1					
26	1					
27	1					
28	1					
29	1					
30	1					
31	1					
32	1					
33	1					
34	1					
35	1					
36	1					
37	1					
38	1					
39	1					
40	1					
41	1					
42	1					
43	1					
44	1					
45	1					
46	1					
47	1					
48	1					
49	1					
50	1					
51	1					
52	1					
53	1					
54	1					
55	1					
56	1					
57	2					
58	1					
59	1					
60	1					
61	2					
62	2					
63	2					
64	3					
65	3					
66	3					
67	4					
68	4					
69	2					
70	5					
71	4					
72	2					
73	4					
74	4					
75	2					
76	3					
77	4					
78	3					
79	1					
80	1					
81	1					
82	1					
83	1					
84	1					
85	1					
86	1					
87	1					
88	1					
89	1					
90	1					
91	1					
92	1					
93	1					
94	1					
95	2					
96	2					
97	2					
98	2					
99	2					
100	6					
101	8					
102	2					
103	5					
104	7					
105	7					
106	8					
107	10					
108	7					
109	5					
110	3					
111	5					
112	9					
113	4					
114	2					
115	13					
116	20					
117	12					
118	4					
119	2					
120	2					
121	3					
122	2					
123	1					
124	1					
125	1					
126	1					
127	1					
128	1					
129	1					
130	1					
131	2					
132	1					
133	7					
134	10					
135	9					
136	7					
137	5					
138	14					
139	21					
140	18					
141	25					
142	32					
143	27					
144	73					
145	64					
146	57					
147	62					
148	78					
149	61					
150	54					
151	100					
152	130		175.516129			
153	137					
154	176					
155	186					
156	118					
157	139					
158	183					
159	174					
160	174					
161	144					
162	163					
163	184					
164	175					
165	228					
166	235					
167	163					
168	196					
169	254					
170	185					
171	175					
172	228					
173	208					
174	173					
175	140					
176	158					
177	245					
178	228					
179	179					
180	209					
181	234					
182	154					
183	77					
184	95					
185	104					
186	73					
187	108					
188	92					
189	89					
190	90					
191	78					
192	53					
193	34					
194	26					
195	28					
196	26					
197	22					
198	20					
199	18					
200	13					
201	11					
202	9					
203	7					
204	4					
205	1					
206	1					
207	1					
208	1					
209	1					
210	1					
211	1					
212	0					
213	4					
214	7					
215	6					
216	2					
217	2					
218	3					
219	6					
220	11					
221	12					
222	11					
223	7					
224	5					
225	9					
226	14					
227	14					
228	7					
229	5					
230	6					
231	4					
232	6					
233	10					
234	7					
235	6					
236	6					
237	4					
238	2					
239	1					
240	1					
241	1					
242	1					
243	1					
244	1					
245	1					
246	1					
247	1					
248	1					
249	1					
250	1					
251	1					
252	1					
253	1					
254	1					
255	1					
256	2					
257	1					
258	1					
259	2					
260	4					
261	4					
262	6					
263	4					
264	3					
265	3					
266	3					
267	2					
268	3					
269	3					
270	2					
271	1					
272	2					
273	2					
274	2					
275	2					
276	1					
277	1					
278	1					
279	1					
280	1					
281	1					
282	1					
283	1					
284	1					
285	1					
286	1					
287	1					
288	1					
289	1					
290	1					
291	1					
292	1					
293	1					
294	1					
295	1					
296	1					
297	1					
298	2					
299	1					
300	1					
301	1					
302	1					
303	1					
304	1					
305	1					
306	1					
307	1					
308	1					
309	1					
310	1					
311	1					
312	1					
313	1					
314	1					
315	1					
316	1					
317	1					
318	1					
319	1					
