X	Y
0	5
1	6
2	7
3	9
4	11
5	18
6	21
7	23
8	26
9	24
10	21
11	22
12	28
13	38
14	40
15	34
16	38
17	38
18	38
19	33
20	28
21	30
22	32
23	27
24	26
25	20
26	21
27	18
28	14
29	8
30	7
31	6
32	4
33	2
34	1
35	1
36	1
37	1
38	3
39	4
40	7
41	13
42	15
43	15
44	23
45	32
46	32
47	39
48	45
49	57
50	57
51	46
52	52
53	61
54	61
55	72
56	94
57	79
58	83
59	91
60	69
61	59
62	73
63	67
64	48
65	37
66	60
67	51
68	35
69	29
70	26
71	16
72	10
73	7
74	3
75	1
76	2
77	3
78	6
79	9
80	12
81	20
82	30
83	37
84	47
85	53
86	71
87	91
88	110
89	114
90	124
91	141
92	154
93	162
94	163
95	159
96	210
97	235
98	220
99	155
100	176
101	222
102	194
103	206
104	252
105	213
106	164
107	133
108	125
109	120
110	99
111	90
112	75
113	44
114	27
115	21
116	17
117	17
118	24
119	40
120	58
121	57
122	100
123	203
124	217
125	172
126	240
127	242
128	241
129	242
130	241
131	241
132	241
133	242
134	241
135	241
136	241
137	241
138	241
139	241
140	241
141	241
142	241
143	242
144	241
145	241
146	241
147	241
148	241
149	241
150	241
151	241
152	241
153	241
154	241
155	241
156	241
157	241
158	241
159	242
160	241
161	241
162	241
163	241
164	241
165	241
166	241
167	241
168	241
169	241
170	241
171	241
172	241
173	241
174	241
175	241
176	241
177	241
178	241
179	241
180	241
181	241
182	241
183	241
184	241
185	240
186	239
187	245
188	241
189	200
190	162
191	143
192	111
193	83
194	59
195	33
196	20
197	25
198	30
199	35
200	51
201	66
202	68
203	82
204	106
205	118
206	184
207	197
208	203
209	208
210	215
211	218
212	228
213	226
214	187
215	169
216	231
217	216
218	196
219	184
220	154
221	148
222	167
223	143
224	136
225	128
226	94
227	78
228	67
229	68
230	53
231	30
232	23
233	20
234	13
235	7
236	5
237	4
238	6
239	9
240	13
241	18
242	23
243	25
244	26
245	32
246	51
247	53
248	62
249	75
250	79
251	75
252	73
253	81
254	80
255	75
256	78
257	76
258	80
259	78
260	65
261	54
262	49
263	51
264	50
265	45
266	30
267	23
268	22
269	20
270	15
271	11
272	8
273	6
274	4
275	3
276	2
277	2
278	4
279	7
280	6
281	9
282	14
283	15
284	16
285	21
286	28
287	35
288	39
289	47
290	48
291	40
292	46
293	54
294	48
295	39
296	41
297	38
298	46
299	46
300	30
301	21
